"Time (s) Run #1","Position (m) Run #1","Force (N) Run #1","Speed (mm/min) Run #1","Time (s) Run #2","Position (m) Run #2","Force (N) Run #2","Speed (mm/min) Run #2","Time (s) Run #3","Position (m) Run #3","Force (N) Run #3","Speed (mm/min) Run #3"
0.000,0.00000,0,,0.000,0.00000,0,,0.000,0.00000,0,
0.200,0.00000,0,0.00,0.200,0.00000,0,0.00,0.200,-1.33350E-5,-61,-4.48
0.400,0.00000,0,0.03,0.400,0.00000,0,0.00,0.400,-2.98450E-5,-235,-7.37
0.600,0.00000,0,1.97,0.600,0.00000,0,0.00,0.600,-6.60400E-5,-522,-10.16
0.800,6.35000E-7,0,8.86,0.800,0.00000,0,0.00,0.800,-9.46150E-5,-801,-12.89
1.000,3.87350E-5,0,18.38,1.000,0.00000,0,0.00,1.000,-1.51765E-4,-1312,-15.53
1.200,1.38430E-4,0,23.78,1.200,0.00000,0,0.00,1.200,-2.01930E-4,-1654,-14.89
1.400,2.29870E-4,0,23.59,1.400,0.00000,0,0.00,1.400,-2.69240E-4,-1943,-9.81
1.600,2.85115E-4,0,21.84,1.600,0.00000,0,0.00,1.600,-2.74955E-4,-1898,-3.94
1.800,3.63855E-4,0,21.18,1.800,0.00000,0,-0.95,1.800,-2.74955E-4,-1884,-0.29
2.000,4.41325E-4,0,18.95,2.000,0.00000,0,-1.90,2.000,-2.74955E-4,-1879,0.00
2.200,4.97205E-4,0,12.95,2.200,-1.90500E-5,-94,-2.25,2.200,-2.74955E-4,-1875,-1.59
2.400,5.30860E-4,0,9.11,2.400,-1.90500E-5,-133,-2.06,2.400,-2.74955E-4,-1873,-6.64
2.600,5.33400E-4,0,9.46,2.600,-2.60350E-5,-182,-1.87,2.600,-3.06705E-4,-1983,-12.95
2.800,5.87375E-4,0,9.08,2.800,-3.42900E-5,-242,-2.03,2.800,-3.75920E-4,-1983,-18.10
3.000,6.29920E-4,0,-4.51,3.000,-4.12750E-5,-278,-1.59,3.000,-4.33070E-4,-2026,-19.68
3.200,6.15950E-4,0,-31.40,3.200,-4.44500E-5,-305,-0.98,3.200,-5.10540E-4,-2086,-20.35
3.400,4.14655E-4,0,-53.85,3.400,-4.76250E-5,-340,-0.48,3.400,-5.65785E-4,-2104,-22.32
3.600,1.74625E-4,0,-59.21,3.600,-4.76250E-5,-339,-0.16,3.600,-6.50240E-4,-2185,-22.57
3.800,-5.71500E-6,0,-53.28,3.800,-4.76250E-5,-339,0.00,3.800,-7.39775E-4,-2237,-18.19
4.000,-1.47955E-4,0,-51.66,4.000,-4.76250E-5,-338,0.00,4.000,-7.88035E-4,-2274,-9.68
4.200,-3.28295E-4,0,-59.31,4.200,-4.76250E-5,-338,0.00,4.200,-7.91845E-4,-2219,-4.45
4.400,-5.35940E-4,0,-67.75,4.400,-4.76250E-5,-338,-0.63,4.400,-7.91845E-4,-2191,-6.86
4.600,-8.03910E-4,0,-71.02,4.600,-4.76250E-5,-338,-1.68,4.600,-8.24865E-4,-2326,-11.05
4.800,-0.00103,0,-68.87,4.800,-6.03250E-5,-431,-2.35,4.800,-8.92175E-4,-2365,-10.48
5.000,-0.00126,-1,-62.71,5.000,-6.85800E-5,-485,-2.19,5.000,-9.12495E-4,-2299,-12.80
5.200,-0.00146,-47,-49.18,5.200,-7.36600E-5,-536,-1.49,5.200,-9.13765E-4,-2260,-15.78
5.400,-0.00163,-1177,-28.42,5.400,-7.81050E-5,-571,-1.08,5.400,-0.00106,-2428,-18.80
5.600,-0.00164,-1550,-10.29,5.600,-8.06450E-5,-592,-0.83,5.600,-0.00106,-2348,-21.81
5.800,-0.00164,-1547,-1.43,5.800,-8.31850E-5,-618,-0.70,5.800,-0.00114,-2502,-25.50
6.000,-0.00165,-1597,-0.54,6.000,-8.50900E-5,-632,-0.67,6.000,-0.00127,-2555,-29.65
6.200,-0.00165,-1595,0.83,6.200,-8.76300E-5,-649,-0.60,6.200,-0.00136,-2589,-28.19
6.400,-0.00165,-1594,3.91,6.400,-8.95350E-5,-671,-0.48,6.400,-0.00143,-2633,-26.92
6.600,-0.00163,-1530,6.51,6.600,-9.08050E-5,-681,-0.35,6.600,-0.00154,-2682,-27.27
6.800,-0.00159,-1134,6.99,6.800,-9.14400E-5,-690,-0.29,6.800,-0.00163,-2715,-27.37
7.000,-0.00157,-925,5.24,7.000,-9.27100E-5,-696,-0.25,7.000,-0.00171,-2758,-22.57
7.200,-0.00156,-807,3.05,7.200,-9.33450E-5,-704,-0.19,7.200,-0.00181,-2784,-18.32
7.400,-0.00155,-744,1.56,7.400,-9.39800E-5,-707,-0.13,7.400,-0.00181,-2677,-19.30
7.600,-0.00155,-717,1.05,7.600,-9.39800E-5,-710,-0.13,7.600,-0.00190,-2836,-25.81
7.800,-0.00155,-717,2.06,7.800,-9.46150E-5,-716,-0.22,7.800,-0.00201,-2867,-32.86
8.000,-0.00154,-664,3.08,8.000,-9.52500E-5,-720,-0.29,8.000,-0.00213,-2876,-33.08
8.200,-0.00152,-499,3.11,8.200,-9.71550E-5,-736,-0.25,8.200,-0.00224,-2908,-32.29
8.400,-0.00152,-447,2.16,8.400,-9.71550E-5,-738,-0.19,8.400,-0.00233,-2956,-34.80
8.600,-0.00151,-396,1.33,8.600,-9.77900E-5,-740,-0.13,8.600,-0.00245,-2983,-33.43
8.800,-0.00151,-372,1.33,8.800,-9.84250E-5,-744,-0.16,8.800,-0.00261,-2988,-23.84
9.000,-0.00151,-351,1.52,9.000,-9.84250E-5,-748,-0.19,9.000,-0.00263,-2893,-9.94
9.200,-0.00150,-297,1.94,9.200,-9.96950E-5,-754,-0.22,9.200,-0.00263,-2847,-5.30
9.400,-0.00149,-247,2.35,9.400,-1.00330E-4,-763,-0.25,9.400,-0.00263,-2828,-11.59
9.600,-0.00148,-206,3.02,9.600,-1.00965E-4,-767,-0.25,9.600,-0.00271,-3045,-21.75
9.800,-0.00147,-131,4.54,9.800,-1.02235E-4,-778,-0.25,9.800,-0.00278,-3064,-30.86
10.000,-0.00146,-61,8.79,10.000,-1.02870E-4,-783,-0.29,10.000,-0.00292,-3066,-37.37
10.200,-0.00143,-13,14.60,10.200,-1.03505E-4,-788,-0.38,10.200,-0.00304,-3081,-41.91
10.400,-0.00135,-4,18.48,10.400,-1.05410E-4,-803,-0.48,10.400,-0.00319,-3084,-42.10
10.600,-0.00129,-3,18.61,10.600,-1.07315E-4,-817,-0.54,10.600,-0.00334,-3096,-39.15
10.800,-0.00123,-2,16.51,10.800,-1.08585E-4,-828,-0.57,10.800,-0.00346,-3101,-32.32
11.000,-0.00118,-3,14.19,11.000,-1.11125E-4,-852,-0.57,11.000,-0.00356,-3091,-28.80
11.200,-0.00113,-3,9.94,11.200,-1.13030E-4,-867,-0.54,11.200,-0.00362,-3115,-36.61
11.400,-0.00110,-3,2.03,11.400,-1.14300E-4,-879,-0.57,11.400,-0.00376,-3156,-48.13
11.600,-0.00111,-3,-7.91,11.600,-1.16205E-4,-894,-0.60,11.600,-0.00400,-775,-45.82
11.800,-0.00116,-3,-14.57,11.800,-1.19380E-4,-920,-0.60,11.800,-0.00414,1150,-27.37
12.000,-0.00123,-3,-15.59,12.000,-1.20015E-4,-929,-0.57,12.000,-0.00415,1151,-7.97
12.200,-0.00127,-3,-12.00,12.200,-1.22555E-4,-950,-0.48,12.200,-0.00415,1151,-0.32
12.400,-0.00131,-5,-7.18,12.400,-1.24460E-4,-969,-0.32,12.400,-0.00415,1151,0.00
12.600,-0.00132,-6,-3.33,12.600,-1.24460E-4,-970,-0.10,12.600,-0.00415,1151,0.00
12.800,-0.00132,-6,-0.73,12.800,-1.24460E-4,-969,0.00,12.800,-0.00415,1151,0.00
13.000,-0.00132,-6,0.00,13.000,-1.24460E-4,-968,0.00,13.000,-0.00415,1151,0.00
13.200,-0.00132,-6,-0.22,13.200,-1.24460E-4,-968,0.00,13.200,-0.00415,1151,0.00
13.400,-0.00132,-6,-1.81,13.400,-1.24460E-4,-968,0.00,13.400,-0.00415,1151,0.00
13.600,-0.00133,-6,-3.81,13.600,-1.24460E-4,-968,0.00,13.600,-0.00415,1151,0.00
13.800,-0.00135,-6,-4.51,13.800,-1.24460E-4,-968,0.00,13.800,-0.00415,1151,0.00
14.000,-0.00137,-5,-3.21,14.000,-1.24460E-4,-968,0.00,14.000,-0.00415,1151,0.00
14.200,-0.00137,-5,-1.43,14.200,-1.24460E-4,-968,0.00,14.200,-0.00415,1151,0.00
14.400,-0.00137,-6,-1.11,14.400,-1.24460E-4,-968,0.00,14.400,-0.00415,1150,0.00
14.600,-0.00138,-6,-1.97,14.600,-1.24460E-4,-968,0.00,14.600,-0.00415,1151,0.00
14.800,-0.00138,-6,-3.37,14.800,-1.24460E-4,-968,0.00,14.800,-0.00415,1150,0.00
15.000,-0.00140,-6,-4.45,15.000,-1.24460E-4,-968,-0.10,15.000,-0.00415,1150,0.00
15.200,-0.00142,-10,-4.92,15.200,-1.24460E-4,-967,-0.32,15.200,-0.00415,1150,0.00
15.400,-0.00143,-15,-4.16,15.400,-1.26365E-4,-977,-0.51,15.400,-0.00415,1150,0.00
15.600,-0.00145,-31,-2.64,15.600,-1.28905E-4,-1002,-0.57,15.600,-0.00415,1151,0.00
15.800,-0.00145,-48,-1.11,15.800,-1.30175E-4,-1015,-0.48,15.800,-0.00415,1150,0.00
16.000,-0.00145,-55,-0.29,16.000,-1.32080E-4,-1035,-0.29,16.000,-0.00415,1150,0.00
16.200,-0.00145,-56,-0.16,16.200,-1.32715E-4,-1039,-0.10,16.200,-0.00415,1150,0.00
16.400,-0.00145,-57,-0.06,16.400,-1.32080E-4,-1038,0.03,16.400,-0.00415,1151,0.00
16.600,-0.00145,-56,-0.03,16.600,-1.32080E-4,-1038,0.03,16.600,-0.00415,1151,0.00
16.800,-0.00145,-56,0.03,16.800,-1.32080E-4,-1038,0.00,16.800,-0.00415,1151,0.00
17.000,-0.00145,-56,0.06,17.000,-1.32080E-4,-1038,0.00,17.000,-0.00415,1151,0.00
17.200,-0.00145,-56,0.06,17.200,-1.32080E-4,-1038,0.00,17.200,-0.00415,1151,0.00
17.400,-0.00145,-56,0.38,17.400,-1.32080E-4,-1038,0.00,17.400,-0.00415,1151,0.00
17.600,-0.00145,-56,1.90,17.600,-1.32080E-4,-1038,0.00,17.600,-0.00415,1151,0.00
17.800,-0.00145,-39,3.14,17.800,-1.32080E-4,-1037,0.00,17.800,-0.00415,1151,0.00
18.000,-0.00142,-12,2.83,18.000,-1.32080E-4,-1038,0.00,18.000,-0.00415,1151,0.00
18.200,-0.00142,-11,0.73,18.200,-1.32080E-4,-1037,0.00,18.200,-0.00415,1151,
18.400,-0.00142,-11,-2.10,18.400,-1.32080E-4,-1038,0.00,,,,
18.600,-0.00143,-13,-3.78,18.600,-1.32080E-4,-1037,0.00,,,,
18.800,-0.00145,-35,-4.16,18.800,-1.32080E-4,-1037,0.00,,,,
19.000,-0.00146,-104,-3.17,19.000,-1.32080E-4,-1037,0.00,,,,
19.200,-0.00147,-141,-1.84,19.200,-1.32080E-4,-1037,0.00,,,,
19.400,-0.00148,-178,-0.95,19.400,-1.32080E-4,-1037,0.00,,,,
19.600,-0.00148,-186,-0.35,19.600,-1.32080E-4,-1037,0.00,,,,
19.800,-0.00148,-186,-0.03,19.800,-1.32080E-4,-1037,0.00,,,,
20.000,-0.00148,-186,0.03,20.000,-1.32080E-4,-1037,0.00,,,,
20.200,-0.00148,-186,0.79,20.200,-1.32080E-4,-1037,0.00,,,,
20.400,-0.00148,-187,2.22,20.400,-1.32080E-4,-1036,0.00,,,,
20.600,-0.00146,-123,3.46,20.600,-1.32080E-4,-1036,0.00,,,,
20.800,-0.00145,-28,3.27,20.800,-1.32080E-4,-1037,0.00,,,,
21.000,-0.00144,-15,1.87,21.000,-1.32080E-4,-1036,0.06,,,,
21.200,-0.00144,-15,0.70,21.200,-1.32080E-4,-1036,0.25,,,,
21.400,-0.00144,-15,0.19,21.400,-1.30810E-4,-1026,0.41,,,,
21.600,-0.00144,-13,0.16,21.600,-1.28270E-4,-1011,0.38,,,,
21.800,-0.00144,-13,0.06,21.800,-1.27635E-4,-997,0.19,,,,
22.000,-0.00144,-14,0.00,22.000,-1.27635E-4,-996,0.03,,,,
22.200,-0.00144,-13,0.19,22.200,-1.27635E-4,-996,0.00,,,,
22.400,-0.00144,-13,0.38,22.400,-1.27635E-4,-996,0.00,,,,
22.600,-0.00143,-12,0.38,22.600,-1.27635E-4,-996,0.00,,,,
22.800,-0.00143,-12,0.06,22.800,-1.27635E-4,-996,0.00,,,,
23.000,-0.00143,-11,-0.57,23.000,-1.27635E-4,-995,0.00,,,,
23.200,-0.00143,-12,-1.02,23.200,-1.27635E-4,-996,0.00,,,,
23.400,-0.00144,-14,-1.08,23.400,-1.27635E-4,-995,0.00,,,,
23.600,-0.00144,-15,-0.73,23.600,-1.27635E-4,-996,0.00,,,,
23.800,-0.00144,-17,-0.44,23.800,-1.27635E-4,-995,0.00,,,,
24.000,-0.00144,-17,-0.44,24.000,-1.27635E-4,-995,0.00,,,,
24.200,-0.00145,-24,-0.51,24.200,-1.27635E-4,-995,0.00,,,,
24.400,-0.00145,-27,-0.44,24.400,-1.27635E-4,-995,0.00,,,,
24.600,-0.00145,-34,-0.25,24.600,-1.27635E-4,-996,0.00,,,,
24.800,-0.00145,-35,-0.16,24.800,-1.27635E-4,-996,0.00,,,,
25.000,-0.00145,-36,-0.22,25.000,-1.27635E-4,-995,0.00,,,,
25.200,-0.00145,-39,-0.38,25.200,-1.27635E-4,-995,0.00,,,,
25.400,-0.00145,-47,-0.38,25.400,-1.27635E-4,-995,0.00,,,,
25.600,-0.00145,-55,-0.22,25.600,-1.27635E-4,-995,0.00,,,,
25.800,-0.00145,-56,-0.06,25.800,-1.27635E-4,-995,0.00,,,,
26.000,-0.00145,-56,0.00,26.000,-1.27635E-4,-995,0.00,,,,
26.200,-0.00145,-56,0.00,26.200,-1.27635E-4,-995,-0.03,,,,
26.400,-0.00145,-57,-0.03,26.400,-1.27635E-4,-995,-0.06,,,,
26.600,-0.00145,-56,-0.06,26.600,-1.28270E-4,-996,-0.06,,,,
26.800,-0.00146,-58,-0.13,26.800,-1.28270E-4,-995,-0.03,,,,
27.000,-0.00146,-59,-0.25,27.000,-1.28270E-4,-996,0.00,,,,
27.200,-0.00146,-62,-0.35,27.200,-1.28270E-4,-996,0.00,,,,
27.400,-0.00146,-74,-0.38,27.400,-1.28270E-4,-995,0.00,,,,
27.600,-0.00146,-79,-0.41,27.600,-1.28270E-4,-996,0.00,,,,
27.800,-0.00146,-84,-0.44,27.800,-1.28270E-4,-996,0.00,,,,
28.000,-0.00146,-97,-0.44,28.000,-1.28270E-4,-997,0.00,,,,
28.200,-0.00146,-103,-0.35,28.200,-1.28270E-4,-997,0.00,,,,
28.400,-0.00146,-109,-0.22,28.400,-1.28270E-4,-998,0.00,,,,
28.600,-0.00147,-116,-0.13,28.600,-1.28270E-4,-998,0.00,,,,
28.800,-0.00147,-116,-0.06,28.800,-1.28270E-4,-999,0.00,,,,
29.000,-0.00147,-115,-0.13,29.000,-1.28270E-4,-999,0.00,,,,
29.200,-0.00147,-116,-0.19,29.200,-1.28270E-4,-999,-0.03,,,,
29.400,-0.00147,-123,-0.16,29.400,-1.28270E-4,-999,-0.06,,,,
29.600,-0.00147,-125,-0.06,29.600,-1.28905E-4,-999,-0.06,,,,
29.800,-0.00147,-126,0.00,29.800,-1.28905E-4,-999,-0.03,,,,
30.000,-0.00147,-126,-0.03,30.000,-1.28905E-4,-1000,0.00,,,,
30.200,-0.00147,-126,-0.06,30.200,-1.28905E-4,-1003,0.00,,,,
30.400,-0.00147,-127,-0.10,30.400,-1.28905E-4,-1004,0.00,,,,
30.600,-0.00147,-129,-0.10,30.600,-1.28905E-4,-1004,0.00,,,,
30.800,-0.00147,-131,-0.06,30.800,-1.28905E-4,-1003,0.00,,,,
31.000,-0.00147,-131,-0.03,31.000,-1.28905E-4,-1004,0.00,,,,
31.200,-0.00147,-131,0.00,31.200,-1.28905E-4,-1003,0.00,,,,
31.400,-0.00147,-131,0.00,31.400,-1.28905E-4,-1004,0.00,,,,
31.600,-0.00147,-131,-0.06,31.600,-1.28905E-4,-1004,0.00,,,,
31.800,-0.00147,-132,-0.13,31.800,-1.28905E-4,-1004,0.00,,,,
32.000,-0.00147,-136,-0.16,32.000,-1.28905E-4,-1004,0.00,,,,
32.200,-0.00147,-140,-0.13,32.200,-1.28905E-4,-1004,0.00,,,,
32.400,-0.00147,-143,-0.06,32.400,-1.28905E-4,-1004,0.00,,,,
32.600,-0.00147,-144,-0.06,32.600,-1.28905E-4,-1003,0.00,,,,
32.800,-0.00147,-144,-0.06,32.800,-1.28905E-4,-1004,0.00,,,,
33.000,-0.00147,-145,-0.06,33.000,-1.28905E-4,-1004,0.00,,,,
33.200,-0.00147,-147,-0.03,33.200,-1.28905E-4,-1004,0.00,,,,
33.400,-0.00147,-148,0.00,33.400,-1.28905E-4,-1004,0.00,,,,
33.600,-0.00147,-148,-0.03,33.600,-1.28905E-4,-1004,0.00,,,,
33.800,-0.00147,-149,-0.06,33.800,-1.28905E-4,-1004,0.00,,,,
34.000,-0.00147,-149,-0.06,34.000,-1.28905E-4,-1004,0.00,,,,
34.200,-0.00147,-152,-0.03,34.200,-1.28905E-4,-1003,0.00,,,,
34.400,-0.00147,-153,0.00,34.400,-1.28905E-4,-1003,0.00,,,,
34.600,-0.00147,-153,0.00,34.600,-1.28905E-4,-1004,0.00,,,,
34.800,-0.00147,-153,0.00,34.800,-1.28905E-4,-1003,0.00,,,,
35.000,-0.00147,-153,0.00,35.000,-1.28905E-4,-1003,0.00,,,,
35.200,-0.00147,-153,0.00,35.200,-1.28905E-4,-1004,0.00,,,,
35.400,-0.00147,-153,0.00,35.400,-1.28905E-4,-1003,0.00,,,,
35.600,-0.00147,-153,0.00,35.600,-1.28905E-4,-1003,0.00,,,,
35.800,-0.00147,-153,0.00,35.800,-1.28905E-4,-1004,0.00,,,,
36.000,-0.00147,-153,0.00,36.000,-1.28905E-4,-1004,0.00,,,,
36.200,-0.00147,-153,0.00,36.200,-1.28905E-4,-1004,0.00,,,,
36.400,-0.00147,-153,0.00,36.400,-1.28905E-4,-1004,0.00,,,,
36.600,-0.00147,-153,0.00,36.600,-1.28905E-4,-1003,0.00,,,,
36.800,-0.00147,-153,0.00,36.800,-1.28905E-4,-1003,0.00,,,,
37.000,-0.00147,-153,0.00,37.000,-1.28905E-4,-1004,0.00,,,,
37.200,-0.00147,-153,0.00,37.200,-1.28905E-4,-1003,0.00,,,,
37.400,-0.00147,-153,0.00,37.400,-1.28905E-4,-1003,0.00,,,,
37.600,-0.00147,-153,0.00,37.600,-1.28905E-4,-1003,0.00,,,,
37.800,-0.00147,-153,0.00,37.800,-1.28905E-4,-1003,0.00,,,,
38.000,-0.00147,-153,0.00,38.000,-1.28905E-4,-1004,0.00,,,,
38.200,-0.00147,-153,0.00,38.200,-1.28905E-4,-1003,0.00,,,,
38.400,-0.00147,-153,0.00,38.400,-1.28905E-4,-1003,0.00,,,,
38.600,-0.00147,-153,0.00,38.600,-1.28905E-4,-1004,0.00,,,,
38.800,-0.00147,-153,0.00,38.800,-1.28905E-4,-1003,0.00,,,,
39.000,-0.00147,-153,0.00,39.000,-1.28905E-4,-1004,0.00,,,,
39.200,-0.00147,-153,0.00,39.200,-1.28905E-4,-1004,0.00,,,,
39.400,-0.00147,-153,0.00,39.400,-1.28905E-4,-1003,0.00,,,,
39.600,-0.00147,-153,0.00,39.600,-1.28905E-4,-1003,0.00,,,,
39.800,-0.00147,-153,0.00,39.800,-1.28905E-4,-1003,0.00,,,,
40.000,-0.00147,-153,0.00,40.000,-1.28905E-4,-1003,0.00,,,,
40.200,-0.00147,-153,0.00,40.200,-1.28905E-4,-1003,0.00,,,,
40.400,-0.00147,-154,0.03,40.400,-1.28905E-4,-1004,0.00,,,,
40.600,-0.00147,-154,0.06,40.600,-1.28905E-4,-1004,0.00,,,,
40.800,-0.00147,-152,0.06,40.800,-1.28905E-4,-1003,0.00,,,,
41.000,-0.00147,-149,0.03,41.000,-1.28905E-4,-1003,0.00,,,,
41.200,-0.00147,-149,0.00,41.200,-1.28905E-4,-1004,0.00,,,,
41.400,-0.00147,-149,0.00,41.400,-1.28905E-4,-1003,0.03,,,,
41.600,-0.00147,-149,0.00,41.600,-1.28905E-4,-1003,0.06,,,,
41.800,-0.00147,-149,0.00,41.800,-1.28270E-4,-1003,0.10,,,,
42.000,-0.00147,-149,0.00,42.000,-1.28270E-4,-1003,0.13,,,,
42.200,-0.00147,-149,0.00,42.200,-1.27635E-4,-998,0.13,,,,
42.400,-0.00147,-149,0.00,42.400,-1.27000E-4,-991,0.10,,,,
42.600,-0.00147,-149,0.00,42.600,-1.27000E-4,-991,0.03,,,,
42.800,-0.00147,-149,0.00,42.800,-1.27000E-4,-990,0.00,,,,
43.000,-0.00147,-149,0.00,43.000,-1.27000E-4,-990,0.00,,,,
43.200,-0.00147,-149,0.13,43.200,-1.27000E-4,-990,-0.03,,,,
43.400,-0.00147,-149,0.54,43.400,-1.27000E-4,-990,-0.06,,,,
43.600,-0.00147,-143,0.98,43.600,-1.27635E-4,-990,-0.06,,,,
43.800,-0.00146,-94,1.14,43.800,-1.27635E-4,-990,-0.03,,,,
44.000,-0.00146,-84,0.86,44.000,-1.27635E-4,-990,0.00,,,,
44.200,-0.00146,-64,0.41,44.200,-1.27635E-4,-990,0.00,,,,
44.400,-0.00146,-64,0.13,44.400,-1.27635E-4,-990,0.00,,,,
44.600,-0.00146,-63,0.35,44.600,-1.27635E-4,-990,0.00,,,,
44.800,-0.00146,-63,0.86,44.800,-1.27635E-4,-990,0.00,,,,
45.000,-0.00145,-39,1.02,45.000,-1.27635E-4,-990,0.00,,,,
45.200,-0.00145,-19,0.67,45.200,-1.27635E-4,-990,0.00,,,,
45.400,-0.00145,-19,0.16,45.400,-1.27635E-4,-990,0.00,,,,
45.600,-0.00145,-19,0.10,45.600,-1.27635E-4,-990,0.00,,,,
45.800,-0.00145,-19,0.25,45.800,-1.27635E-4,-990,0.00,,,,
46.000,-0.00145,-17,0.38,46.000,-1.27635E-4,-990,0.00,,,,
46.200,-0.00144,-16,0.38,46.200,-1.27635E-4,-990,0.00,,,,
46.400,-0.00144,-15,0.25,46.400,-1.27635E-4,-990,0.00,,,,
46.600,-0.00144,-15,0.13,46.600,-1.27635E-4,-990,0.00,,,,
46.800,-0.00144,-14,-0.03,46.800,-1.27635E-4,-990,0.00,,,,
47.000,-0.00144,-14,-0.29,47.000,-1.27635E-4,-990,0.00,,,,
47.200,-0.00144,-15,-0.60,47.200,-1.27635E-4,-990,0.00,,,,
47.400,-0.00145,-17,-0.73,47.400,-1.27635E-4,-990,0.00,,,,
47.600,-0.00145,-28,-0.60,47.600,-1.27635E-4,-990,0.00,,,,
47.800,-0.00145,-33,-0.35,47.800,-1.27635E-4,-990,0.00,,,,
48.000,-0.00145,-37,-0.19,48.000,-1.27635E-4,-990,0.00,,,,
48.200,-0.00145,-39,-0.16,48.200,-1.27635E-4,-990,0.00,,,,
48.400,-0.00145,-41,-0.13,48.400,-1.27635E-4,-990,0.00,,,,
48.600,-0.00145,-46,-0.13,48.600,-1.27635E-4,-990,0.00,,,,
48.800,-0.00145,-46,-0.10,48.800,-1.27635E-4,-990,0.00,,,,
49.000,-0.00145,-46,-0.10,49.000,-1.27635E-4,-990,0.00,,,,
49.200,-0.00145,-48,-0.10,49.200,-1.27635E-4,-990,0.00,,,,
49.400,-0.00145,-52,-0.06,49.400,-1.27635E-4,-990,-0.03,,,,
49.600,-0.00145,-52,-0.03,49.600,-1.27635E-4,-992,-0.06,,,,
49.800,-0.00145,-52,0.00,49.800,-1.28270E-4,-997,-0.06,,,,
50.000,-0.00145,-52,0.00,50.000,-1.28270E-4,-997,-0.03,,,,
50.200,-0.00145,-52,0.00,50.200,-1.28270E-4,-998,0.00,,,,
50.400,-0.00145,-53,0.00,50.400,-1.28270E-4,-998,0.00,,,,
50.600,-0.00145,-53,0.00,50.600,-1.28270E-4,-998,0.00,,,,
50.800,-0.00145,-53,0.00,50.800,-1.28270E-4,-998,0.00,,,,
51.000,-0.00145,-52,0.00,51.000,-1.28270E-4,-998,0.00,,,,
51.200,-0.00145,-52,0.00,51.200,-1.28270E-4,-998,0.00,,,,
51.400,-0.00145,-52,0.00,51.400,-1.28270E-4,-998,0.00,,,,
51.600,-0.00145,-52,0.00,51.600,-1.28270E-4,-998,0.00,,,,
51.800,-0.00145,-52,0.00,51.800,-1.28270E-4,-998,0.00,,,,
52.000,-0.00145,-52,0.00,52.000,-1.28270E-4,-998,0.00,,,,
52.200,-0.00145,-52,0.00,52.200,-1.28270E-4,-998,0.00,,,,
52.400,-0.00145,-52,0.00,52.400,-1.28270E-4,-998,0.00,,,,
52.600,-0.00145,-52,0.03,52.600,-1.28270E-4,-998,-0.06,,,,
52.800,-0.00145,-52,0.06,52.800,-1.28270E-4,-998,-0.13,,,,
53.000,-0.00145,-49,0.06,53.000,-1.29540E-4,-1005,-0.13,,,,
53.200,-0.00145,-47,0.03,53.200,-1.29540E-4,-1009,-0.06,,,,
53.400,-0.00145,-46,0.00,53.400,-1.29540E-4,-1008,0.00,,,,
53.600,-0.00145,-46,0.00,53.600,-1.29540E-4,-1008,0.00,,,,
53.800,-0.00145,-46,0.00,53.800,-1.29540E-4,-1008,0.00,,,,
54.000,-0.00145,-46,0.00,54.000,-1.29540E-4,-1008,0.00,,,,
54.200,-0.00145,-46,0.00,54.200,-1.29540E-4,-1008,0.00,,,,
54.400,-0.00145,-46,0.00,54.400,-1.29540E-4,-1008,0.00,,,,
54.600,-0.00145,-46,0.00,54.600,-1.29540E-4,-1008,0.00,,,,
54.800,-0.00145,-46,0.00,54.800,-1.29540E-4,-1008,0.00,,,,
55.000,-0.00145,-46,0.00,55.000,-1.29540E-4,-1009,0.00,,,,
55.200,-0.00145,-46,0.00,55.200,-1.29540E-4,-1008,0.00,,,,
55.400,-0.00145,-46,0.00,55.400,-1.29540E-4,-1008,0.00,,,,
55.600,-0.00145,-46,0.00,55.600,-1.29540E-4,-1009,0.00,,,,
55.800,-0.00145,-46,0.00,55.800,-1.29540E-4,-1009,0.00,,,,
56.000,-0.00145,-46,0.00,56.000,-1.29540E-4,-1008,0.00,,,,
56.200,-0.00145,-46,0.00,56.200,-1.29540E-4,-1009,0.00,,,,
56.400,-0.00145,-46,0.00,56.400,-1.29540E-4,-1009,0.00,,,,
56.600,-0.00145,-46,0.00,56.600,-1.29540E-4,-1009,0.00,,,,
56.800,-0.00145,-46,0.00,56.800,-1.29540E-4,-1009,0.00,,,,
57.000,-0.00145,-46,0.00,57.000,-1.29540E-4,-1009,0.00,,,,
57.200,-0.00145,-46,0.00,57.200,-1.29540E-4,-1009,0.00,,,,
57.400,-0.00145,-46,0.00,57.400,-1.29540E-4,-1008,0.00,,,,
57.600,-0.00145,-47,-0.03,57.600,-1.29540E-4,-1008,0.00,,,,
57.800,-0.00145,-48,-0.10,57.800,-1.29540E-4,-1009,0.00,,,,
58.000,-0.00145,-50,-0.13,58.000,-1.29540E-4,-1008,0.00,,,,
58.200,-0.00145,-52,-0.13,58.200,-1.29540E-4,-1008,0.00,,,,
58.400,-0.00145,-55,-0.16,58.400,-1.29540E-4,-1009,0.00,,,,
58.600,-0.00146,-56,-0.19,58.600,-1.29540E-4,-1008,0.00,,,,
58.800,-0.00146,-62,-0.19,58.800,-1.29540E-4,-1009,0.00,,,,
59.000,-0.00146,-65,-0.19,59.000,-1.29540E-4,-1009,0.00,,,,
59.200,-0.00146,-68,-0.19,59.200,-1.29540E-4,-1008,0.00,,,,
59.400,-0.00146,-72,-0.19,59.400,-1.29540E-4,-1008,0.00,,,,
